,0,1
0,5.0,nan
1,29.0,nan
2,29.0,nan
3,28.0,nan
4,28.0,nan
5,28.0,nan
6,29.0,nan
7,23.0,nan
8,35.0,nan
9,30.0,268.0
10,29.0,292.0
11,28.0,291.0
12,27.0,289.0
13,30.0,291.0
14,30.0,293.0
15,29.0,295.0
16,29.0,295.0
17,29.0,301.0
18,28.0,294.0
19,28.0,292.0
20,28.0,292.0
21,29.0,293.0
22,31.0,296.0
23,29.0,296.0
24,28.0,293.0
25,28.0,292.0
26,27.0,290.0
27,28.0,289.0
28,29.0,289.0
29,29.0,290.0
30,29.0,291.0
31,30.0,292.0
32,29.0,290.0
33,27.0,288.0
34,28.0,289.0
35,28.0,289.0
36,30.0,292.0
37,30.0,294.0
38,29.0,294.0
39,28.0,294.0
40,30.0,294.0
41,28.0,292.0
42,28.0,291.0
43,29.0,293.0
44,30.0,295.0
45,31.0,298.0
46,29.0,297.0
47,28.0,294.0
48,28.0,294.0
49,29.0,294.0
50,28.0,292.0
51,30.0,294.0
52,29.0,296.0
53,29.0,296.0
54,29.0,295.0
55,28.0,291.0
56,28.0,290.0
57,29.0,291.0
58,30.0,292.0
59,30.0,293.0
60,29.0,294.0
61,29.0,293.0
62,28.0,291.0
63,28.0,290.0
64,28.0,289.0
65,28.0,289.0
66,30.0,292.0
67,30.0,293.0
68,29.0,293.0
69,28.0,291.0
70,28.0,289.0
71,28.0,289.0
72,29.0,290.0
73,29.0,290.0
74,30.0,293.0
75,30.0,294.0
76,29.0,293.0
77,28.0,291.0
78,27.0,289.0
79,28.0,289.0
80,28.0,289.0
81,30.0,291.0
82,29.0,292.0
83,29.0,292.0
84,28.0,289.0
85,28.0,288.0
86,28.0,287.0
87,28.0,288.0
88,29.0,289.0
89,30.0,292.0
90,29.0,293.0
91,28.0,291.0
92,28.0,289.0
93,28.0,289.0
94,29.0,291.0
95,29.0,292.0
96,29.0,293.0
97,29.0,294.0
98,29.0,294.0
99,28.0,292.0
100,28.0,290.0
101,28.0,291.0
102,29.0,292.0
103,30.0,294.0
104,30.0,295.0
105,29.0,294.0
106,28.0,293.0
107,28.0,291.0
108,28.0,290.0
109,29.0,291.0
110,29.0,293.0
111,30.0,294.0
112,30.0,296.0
113,29.0,294.0
114,27.0,291.0
115,28.0,291.0
116,28.0,291.0
117,29.0,292.0
118,30.0,294.0
119,29.0,294.0
120,29.0,294.0
121,28.0,292.0
122,28.0,290.0
123,28.0,288.0
124,29.0,290.0
125,29.0,291.0
126,31.0,293.0
127,29.0,294.0
128,28.0,292.0
129,28.0,291.0
130,28.0,290.0
131,28.0,290.0
132,29.0,291.0
133,29.0,293.0
134,30.0,294.0
135,29.0,294.0
136,27.0,290.0
137,27.0,288.0
138,28.0,288.0
139,29.0,289.0
140,29.0,289.0
141,30.0,291.0
142,29.0,291.0
143,28.0,289.0
144,26.0,286.0
145,29.0,286.0
146,28.0,287.0
147,29.0,290.0
148,31.0,292.0
149,29.0,292.0
150,28.0,292.0
151,28.0,290.0
152,28.0,288.0
153,28.0,289.0
154,28.0,291.0
155,29.0,290.0
156,30.0,293.0
157,29.0,292.0
158,27.0,289.0
159,27.0,287.0
160,28.0,286.0
161,27.0,286.0
162,29.0,287.0
163,29.0,288.0
164,28.0,288.0
165,28.0,287.0
166,28.0,285.0
167,28.0,284.0
168,27.0,283.0
169,28.0,284.0
170,29.0,285.0
171,30.0,288.0
172,29.0,288.0
173,27.0,285.0
174,28.0,285.0
175,28.0,285.0
176,28.0,285.0
177,28.0,286.0
178,29.0,288.0
179,29.0,289.0
180,29.0,288.0
181,27.0,286.0
182,27.0,284.0
183,27.0,285.0
184,29.0,286.0
185,29.0,286.0
186,29.0,288.0
187,28.0,288.0
188,27.0,286.0
189,28.0,284.0
190,27.0,283.0
191,28.0,284.0
192,28.0,284.0
193,29.0,286.0
194,29.0,287.0
195,28.0,286.0
196,27.0,283.0
197,27.0,282.0
198,28.0,283.0
199,28.0,283.0
200,29.0,284.0
201,29.0,286.0
202,29.0,288.0
203,28.0,287.0
204,27.0,285.0
205,27.0,284.0
206,28.0,286.0
207,29.0,288.0
208,30.0,290.0
209,30.0,291.0
210,28.0,291.0
211,28.0,290.0
212,28.0,289.0
213,28.0,288.0
214,28.0,289.0
215,30.0,291.0
216,30.0,293.0
217,30.0,294.0
218,28.0,292.0
219,27.0,289.0
220,28.0,289.0
221,29.0,289.0
222,29.0,290.0
223,29.0,291.0
224,29.0,292.0
225,29.0,291.0
226,28.0,289.0
227,28.0,287.0
228,27.0,286.0
229,29.0,289.0
230,18.0,279.0
231,33.0,284.0
232,30.0,285.0
233,29.0,285.0
234,27.0,283.0
235,29.0,283.0
236,29.0,284.0
237,29.0,285.0
238,30.0,288.0
239,31.0,289.0
240,29.0,300.0
241,27.0,294.0
242,28.0,292.0
243,28.0,291.0
244,29.0,293.0
245,29.0,293.0
246,29.0,294.0
247,30.0,295.0
248,29.0,294.0
249,27.0,291.0
250,28.0,290.0
251,29.0,292.0
252,30.0,294.0
253,31.0,296.0
254,30.0,297.0
255,28.0,295.0
256,28.0,294.0
257,28.0,292.0
258,21.0,284.0
259,34.0,291.0
260,30.0,292.0
261,30.0,293.0
262,29.0,293.0
263,28.0,290.0
264,27.0,287.0
265,28.0,287.0
266,29.0,288.0
267,29.0,289.0
268,29.0,296.0
269,29.0,291.0
270,28.0,290.0
271,28.0,289.0
272,27.0,286.0
273,28.0,287.0
274,30.0,290.0
275,30.0,291.0
276,29.0,292.0
277,29.0,292.0
278,28.0,291.0
279,28.0,290.0
280,28.0,290.0
281,29.0,290.0
282,30.0,293.0
283,30.0,294.0
284,30.0,294.0
285,29.0,293.0
286,28.0,291.0
287,28.0,290.0
288,30.0,292.0
289,30.0,295.0
290,30.0,296.0
291,30.0,297.0
292,30.0,298.0
293,29.0,296.0
294,27.0,294.0
295,29.0,294.0
296,30.0,296.0
297,30.0,298.0
298,30.0,298.0
299,29.0,297.0
300,28.0,295.0
301,28.0,294.0
302,28.0,293.0
303,29.0,292.0
304,29.0,295.0
305,30.0,296.0
306,30.0,296.0
307,28.0,294.0
308,28.0,292.0
309,28.0,290.0
310,29.0,292.0
311,30.0,293.0
312,29.0,294.0
313,30.0,295.0
314,29.0,295.0
315,28.0,292.0
316,28.0,291.0
317,29.0,291.0
318,29.0,293.0
319,31.0,295.0
320,30.0,296.0
321,28.0,294.0
322,29.0,293.0
323,27.0,291.0
324,29.0,291.0
325,29.0,293.0
326,30.0,295.0
327,30.0,296.0
328,30.0,297.0
329,28.0,294.0
330,27.0,292.0
331,27.0,291.0
332,29.0,292.0
333,30.0,294.0
334,29.0,295.0
335,29.0,295.0
336,29.0,294.0
337,29.0,293.0
338,28.0,290.0
339,28.0,289.0
340,29.0,291.0
341,29.0,293.0
342,19.0,283.0
343,35.0,288.0
344,28.0,287.0
345,27.0,285.0
346,28.0,284.0
347,29.0,284.0
348,29.0,285.0
349,29.0,286.0
350,28.0,285.0
351,29.0,285.0
352,28.0,293.0
353,27.0,286.0
354,28.0,285.0
355,29.0,287.0
356,29.0,288.0
357,29.0,289.0
358,29.0,290.0
359,28.0,289.0
360,28.0,288.0
361,28.0,288.0
362,28.0,289.0
363,30.0,291.0
364,30.0,294.0
365,29.0,294.0
366,28.0,293.0
367,28.0,291.0
368,27.0,289.0
369,29.0,290.0
370,29.0,292.0
371,29.0,292.0
372,29.0,293.0
373,30.0,293.0
374,28.0,291.0
375,27.0,288.0
376,28.0,288.0
377,28.0,289.0
378,30.0,291.0
379,29.0,292.0
380,29.0,292.0
381,29.0,291.0
382,28.0,290.0
383,28.0,288.0
384,28.0,288.0
385,29.0,290.0
386,29.0,291.0
387,30.0,293.0
388,29.0,292.0
389,28.0,290.0
390,28.0,288.0
391,28.0,288.0
392,29.0,289.0
393,28.0,290.0
394,28.0,290.0
395,28.0,289.0
396,28.0,287.0
397,26.0,283.0
398,26.0,281.0
399,26.0,280.0
400,28.0,280.0
401,28.0,280.0
402,28.0,279.0
403,27.0,278.0
404,28.0,277.0
405,27.0,276.0
406,27.0,276.0
407,27.0,277.0
408,28.0,279.0
409,30.0,282.0
410,30.0,284.0
411,29.0,285.0
412,28.0,285.0
413,28.0,286.0
414,29.0,288.0
415,30.0,291.0
416,31.0,294.0
417,31.0,297.0
418,30.0,299.0
419,28.0,297.0
420,28.0,295.0
421,29.0,295.0
422,29.0,295.0
423,30.0,297.0
424,31.0,298.0
425,30.0,298.0
426,27.0,294.0
427,28.0,292.0
428,28.0,290.0
429,26.0,288.0
430,28.0,289.0
431,29.0,289.0
432,29.0,289.0
433,27.0,287.0
434,27.0,284.0
435,27.0,281.0
436,27.0,281.0
437,27.0,280.0
438,28.0,280.0
439,29.0,282.0
440,28.0,283.0
441,19.0,273.0
442,33.0,277.0
443,27.0,277.0
444,26.0,275.0
445,27.0,275.0
446,28.0,277.0
447,27.0,277.0
448,25.0,274.0
449,26.0,271.0
450,25.0,267.0
451,25.0,273.0
452,25.0,265.0
453,25.0,262.0
454,25.0,262.0
455,26.0,262.0
456,27.0,260.0
457,25.0,258.0
458,24.0,257.0
459,25.0,256.0
460,24.0,256.0
461,25.0,257.0
462,27.0,258.0
463,27.0,260.0
464,26.0,261.0
465,26.0,261.0
466,27.0,261.0
467,25.0,260.0
468,25.0,261.0
469,26.0,262.0
470,27.0,264.0
471,28.0,267.0
472,28.0,268.0
473,28.0,269.0
474,26.0,270.0
475,27.0,270.0
476,27.0,271.0
477,28.0,273.0
478,27.0,276.0
479,29.0,280.0
480,29.0,281.0
481,29.0,282.0
482,27.0,281.0
483,27.0,281.0
484,27.0,282.0
485,29.0,283.0
486,29.0,285.0
487,29.0,287.0
488,28.0,287.0
489,27.0,284.0
490,27.0,282.0
491,26.0,279.0
492,25.0,277.0
493,26.0,276.0
494,27.0,276.0
495,26.0,273.0
496,26.0,270.0
497,25.0,266.0
498,25.0,263.0
499,25.0,261.0
500,25.0,260.0
501,26.0,260.0
502,27.0,261.0
503,27.0,262.0
504,27.0,263.0
505,27.0,263.0
506,26.0,263.0
507,25.0,263.0
508,26.0,265.0
509,27.0,267.0
510,29.0,271.0
511,27.0,272.0
512,27.0,273.0
513,27.0,273.0
514,26.0,272.0
515,26.0,271.0
516,26.0,271.0
517,27.0,273.0
518,27.0,274.0
519,28.0,275.0
520,28.0,275.0
521,28.0,275.0
522,26.0,274.0
523,27.0,273.0
524,27.0,274.0
525,27.0,275.0
526,27.0,275.0
527,28.0,277.0
528,29.0,278.0
529,27.0,277.0
530,26.0,274.0
531,27.0,274.0
532,27.0,275.0
533,28.0,276.0
534,29.0,278.0
535,28.0,279.0
536,27.0,280.0
537,27.0,278.0
538,27.0,277.0
539,27.0,276.0
540,26.0,277.0
541,28.0,278.0
542,29.0,280.0
543,27.0,279.0
544,26.0,277.0
545,26.0,275.0
546,25.0,272.0
547,25.0,271.0
548,26.0,269.0
549,26.0,268.0
550,26.0,268.0
551,26.0,266.0
552,27.0,264.0
553,25.0,262.0
554,24.0,259.0
555,24.0,257.0
556,25.0,257.0
557,25.0,257.0
558,25.0,257.0
559,26.0,257.0
560,25.0,256.0
561,24.0,254.0
562,24.0,252.0
563,25.0,251.0
564,24.0,252.0
565,24.0,252.0
566,26.0,253.0
567,27.0,255.0
568,27.0,257.0
569,26.0,257.0
570,26.0,257.0
571,25.0,258.0
572,26.0,260.0
573,26.0,262.0
574,27.0,264.0
575,28.0,268.0
576,27.0,269.0
577,27.0,269.0
578,26.0,268.0
579,25.0,267.0
580,25.0,266.0
581,25.0,266.0
582,27.0,267.0
583,26.0,267.0
584,26.0,267.0
585,27.0,265.0
586,27.0,265.0
587,26.0,264.0
588,27.0,265.0
589,27.0,266.0
590,27.0,269.0
591,29.0,272.0
592,30.0,275.0
593,29.0,277.0
594,27.0,277.0
595,28.0,278.0
596,27.0,279.0
597,29.0,283.0
598,29.0,285.0
599,22.0,280.0
600,35.0,288.0
601,29.0,288.0
602,28.0,286.0
603,26.0,284.0
604,27.0,285.0
605,28.0,285.0
606,29.0,286.0
607,29.0,286.0
608,28.0,285.0
609,27.0,291.0
610,27.0,283.0
611,26.0,280.0
612,27.0,279.0
613,28.0,281.0
614,28.0,282.0
615,30.0,284.0
616,28.0,283.0
617,26.0,281.0
618,26.0,279.0
619,28.0,279.0
620,27.0,279.0
621,27.0,279.0
622,27.0,279.0
623,27.0,278.0
624,27.0,277.0
625,26.0,273.0
626,25.0,270.0
627,26.0,270.0
628,26.0,269.0
629,27.0,269.0
630,27.0,269.0
631,27.0,268.0
632,26.0,267.0
633,25.0,265.0
634,26.0,264.0
635,26.0,264.0
636,25.0,264.0
637,27.0,265.0
638,28.0,268.0
639,28.0,269.0
640,27.0,269.0
641,26.0,269.0
642,27.0,269.0
643,27.0,271.0
644,28.0,273.0
645,29.0,277.0
646,30.0,281.0
647,29.0,283.0
648,29.0,283.0
649,28.0,283.0
650,28.0,284.0
651,28.0,286.0
652,29.0,288.0
653,31.0,293.0
654,30.0,295.0
655,29.0,295.0
656,28.0,293.0
657,28.0,293.0
658,28.0,293.0
659,28.0,292.0
660,29.0,293.0
661,30.0,296.0
662,30.0,297.0
663,28.0,293.0
664,28.0,290.0
665,28.0,290.0
666,29.0,290.0
667,30.0,292.0
668,29.0,293.0
669,30.0,295.0
670,29.0,294.0
671,29.0,293.0
672,28.0,291.0
673,27.0,291.0
674,30.0,293.0
675,30.0,295.0
676,29.0,295.0
677,28.0,293.0
678,28.0,291.0
679,27.0,289.0
680,28.0,288.0
681,29.0,288.0
682,28.0,288.0
683,29.0,290.0
684,29.0,289.0
685,28.0,287.0
686,27.0,285.0
687,27.0,283.0
688,27.0,283.0
689,29.0,284.0
690,29.0,285.0
691,28.0,285.0
692,28.0,285.0
693,28.0,284.0
694,27.0,281.0
695,26.0,279.0
696,27.0,279.0
697,28.0,280.0
698,28.0,281.0
699,28.0,280.0
700,27.0,279.0
701,26.0,277.0
702,27.0,276.0
703,26.0,274.0
704,27.0,274.0
705,28.0,276.0
706,27.0,276.0
707,27.0,276.0
708,27.0,275.0
709,26.0,273.0
710,26.0,271.0
711,27.0,272.0
712,27.0,272.0
713,28.0,273.0
714,28.0,274.0
715,28.0,275.0
716,27.0,274.0
717,28.0,275.0
718,27.0,275.0
719,27.0,276.0
720,28.0,278.0
721,30.0,281.0
722,30.0,284.0
723,27.0,284.0
724,27.0,283.0
725,27.0,282.0
726,27.0,282.0
727,27.0,282.0
728,28.0,283.0
729,29.0,284.0
730,30.0,287.0
731,28.0,284.0
732,27.0,281.0
733,27.0,281.0
734,27.0,280.0
735,27.0,281.0
736,29.0,282.0
737,29.0,283.0
738,29.0,284.0
739,28.0,283.0
740,27.0,281.0
741,27.0,280.0
742,27.0,280.0
743,27.0,281.0
744,29.0,283.0
745,29.0,285.0
746,27.0,283.0
747,27.0,281.0
748,27.0,280.0
749,28.0,280.0
750,26.0,279.0
751,28.0,279.0
752,28.0,280.0
753,28.0,281.0
754,28.0,281.0
755,27.0,278.0
756,26.0,277.0
757,27.0,277.0
758,28.0,278.0
759,28.0,279.0
760,29.0,281.0
761,29.0,282.0
762,27.0,281.0
763,28.0,280.0
764,27.0,280.0
765,27.0,280.0
766,27.0,281.0
767,29.0,284.0
768,29.0,285.0
769,28.0,285.0
770,26.0,283.0
771,27.0,281.0
772,28.0,281.0
773,28.0,282.0
774,28.0,283.0
775,29.0,284.0
776,30.0,286.0
777,28.0,285.0
778,27.0,283.0
779,27.0,282.0
780,27.0,283.0
781,27.0,283.0
782,29.0,284.0
783,29.0,285.0
784,28.0,285.0
785,27.0,283.0
786,28.0,281.0
787,27.0,280.0
788,26.0,279.0
789,28.0,280.0
790,29.0,281.0
791,29.0,283.0
792,28.0,282.0
793,27.0,280.0
794,27.0,279.0
795,28.0,279.0
796,27.0,278.0
797,27.0,279.0
798,29.0,281.0
799,28.0,281.0
800,28.0,280.0
801,27.0,278.0
802,27.0,278.0
803,26.0,276.0
804,27.0,277.0
805,29.0,278.0
806,28.0,279.0
807,28.0,280.0
808,28.0,279.0
809,27.0,279.0
810,27.0,278.0
811,27.0,278.0
812,27.0,278.0
813,29.0,282.0
814,29.0,284.0
815,28.0,283.0
816,27.0,281.0
817,27.0,281.0
818,26.0,279.0
819,27.0,279.0
820,28.0,280.0
821,28.0,281.0
822,28.0,282.0
823,28.0,281.0
824,27.0,279.0
825,26.0,277.0
826,26.0,277.0
827,27.0,276.0
828,29.0,279.0
829,29.0,281.0
830,28.0,281.0
831,28.0,280.0
832,28.0,280.0
833,27.0,278.0
834,26.0,277.0
835,27.0,279.0
836,29.0,281.0
837,28.0,282.0
838,28.0,282.0
839,27.0,279.0
840,26.0,278.0
841,27.0,277.0
842,27.0,276.0
843,27.0,276.0
844,28.0,279.0
845,27.0,279.0
846,27.0,277.0
847,27.0,275.0
848,26.0,273.0
849,25.0,272.0
850,25.0,270.0
851,27.0,270.0
852,26.0,269.0
853,25.0,268.0
854,25.0,265.0
855,25.0,263.0
856,24.0,261.0
857,25.0,259.0
858,25.0,257.0
859,25.0,257.0
860,26.0,259.0
861,28.0,260.0
862,27.0,260.0
863,26.0,261.0
864,25.0,261.0
865,26.0,261.0
866,26.0,263.0
867,27.0,265.0
868,27.0,267.0
869,28.0,270.0
870,29.0,273.0
871,28.0,274.0
872,26.0,274.0
873,26.0,274.0
874,27.0,275.0
875,27.0,277.0
876,28.0,278.0
877,28.0,279.0
878,29.0,281.0
879,28.0,280.0
880,27.0,278.0
881,27.0,277.0
882,28.0,278.0
883,28.0,280.0
884,28.0,281.0
885,30.0,284.0
886,30.0,286.0
887,28.0,285.0
888,26.0,283.0
889,28.0,283.0
890,29.0,285.0
891,29.0,287.0
892,28.0,288.0
893,29.0,288.0
894,29.0,289.0
895,28.0,288.0
896,26.0,285.0
897,27.0,284.0
898,30.0,287.0
899,30.0,289.0
900,27.0,288.0
901,28.0,286.0
902,28.0,287.0
903,28.0,286.0
904,26.0,283.0
905,27.0,283.0
906,28.0,285.0
907,29.0,287.0
908,28.0,285.0
909,27.0,281.0
910,25.0,279.0
911,26.0,277.0
912,25.0,274.0
913,25.0,271.0
914,26.0,271.0
915,27.0,270.0
916,26.0,268.0
917,27.0,265.0
918,26.0,263.0
919,25.0,262.0
920,25.0,261.0
921,26.0,262.0
922,28.0,265.0
923,28.0,268.0
924,27.0,268.0
925,27.0,268.0
926,27.0,270.0
927,27.0,270.0
928,27.0,271.0
929,27.0,272.0
930,28.0,276.0
931,29.0,278.0
932,29.0,279.0
933,28.0,280.0
934,28.0,280.0
935,27.0,280.0
936,29.0,282.0
937,29.0,283.0
938,29.0,286.0
939,29.0,288.0
940,29.0,288.0
941,29.0,288.0
942,28.0,288.0
943,28.0,288.0
944,27.0,287.0
945,30.0,290.0
946,29.0,291.0
947,28.0,290.0
948,28.0,289.0
949,27.0,287.0
950,27.0,286.0
951,28.0,285.0
952,28.0,285.0
953,29.0,286.0
954,29.0,288.0
955,29.0,287.0
956,27.0,284.0
957,27.0,283.0
958,27.0,282.0
959,28.0,283.0
960,29.0,285.0
961,29.0,286.0
962,28.0,286.0
963,30.0,287.0
964,28.0,286.0
965,27.0,284.0
966,28.0,285.0
967,29.0,287.0
968,29.0,289.0
969,29.0,290.0
970,29.0,290.0
971,27.0,288.0
972,27.0,287.0
973,26.0,283.0
974,27.0,282.0
975,28.0,284.0
976,28.0,284.0
977,28.0,283.0
978,29.0,283.0
979,28.0,282.0
980,26.0,279.0
981,27.0,279.0
982,28.0,280.0
983,30.0,284.0
984,29.0,286.0
985,28.0,286.0
986,28.0,286.0
987,19.0,277.0
988,34.0,281.0
989,29.0,282.0
990,30.0,286.0
991,30.0,289.0
992,29.0,289.0
993,29.0,288.0
994,28.0,286.0
995,27.0,285.0
996,27.0,285.0
997,28.0,293.0
998,28.0,288.0
999,29.0,288.0
1000,29.0,287.0
1001,28.0,285.0
1002,27.0,283.0
1003,27.0,281.0
1004,27.0,280.0
1005,28.0,282.0
1006,29.0,284.0
1007,29.0,285.0
1008,29.0,285.0
1009,28.0,284.0
1010,27.0,282.0
1011,27.0,281.0
1012,27.0,281.0
1013,28.0,283.0
1014,30.0,286.0
1015,30.0,287.0
1016,28.0,287.0
1017,28.0,286.0
1018,28.0,285.0
1019,28.0,285.0
1020,28.0,286.0
1021,29.0,288.0
1022,29.0,290.0
1023,30.0,292.0
1024,28.0,290.0
1025,28.0,288.0
1026,27.0,286.0
1027,29.0,288.0
1028,29.0,290.0
1029,28.0,290.0
1030,29.0,291.0
1031,29.0,290.0
1032,28.0,289.0
1033,27.0,287.0
1034,27.0,286.0
1035,28.0,287.0
1036,30.0,289.0
1037,29.0,290.0
1038,28.0,288.0
1039,28.0,288.0
1040,27.0,286.0
1041,28.0,286.0
1042,27.0,285.0
1043,29.0,287.0
1044,29.0,289.0
1045,30.0,290.0
1046,29.0,289.0
1047,27.0,287.0
1048,28.0,287.0
1049,28.0,286.0
1050,28.0,288.0
1051,29.0,289.0
1052,30.0,291.0
1053,29.0,291.0
1054,29.0,290.0
1055,28.0,288.0
1056,27.0,287.0
1057,27.0,286.0
1058,29.0,288.0
1059,30.0,291.0
1060,30.0,292.0
1061,27.0,290.0
1062,27.0,287.0
1063,28.0,286.0
1064,28.0,286.0
1065,28.0,285.0
1066,28.0,286.0
1067,29.0,288.0
1068,30.0,289.0
1069,29.0,288.0
1070,26.0,284.0
1071,27.0,283.0
1072,29.0,285.0
1073,29.0,286.0
1074,27.0,285.0
1075,28.0,286.0
1076,28.0,286.0
1077,28.0,285.0
1078,21.0,276.0
1079,32.0,279.0
1080,30.0,283.0
1081,30.0,286.0
1082,30.0,287.0
1083,29.0,287.0
1084,28.0,287.0
1085,23.0,282.0
1086,31.0,285.0
1087,28.0,285.0
1088,27.0,291.0
1089,28.0,287.0
1090,30.0,287.0
1091,29.0,287.0
1092,26.0,283.0
1093,27.0,281.0
1094,28.0,281.0
1095,29.0,288.0
1096,28.0,285.0
1097,28.0,285.0
1098,28.0,286.0
1099,29.0,287.0
1100,27.0,284.0
1101,26.0,281.0
1102,27.0,282.0
1103,22.0,277.0
1104,36.0,286.0
1105,31.0,288.0
1106,30.0,289.0
1107,28.0,289.0
1108,28.0,288.0
1109,29.0,288.0
1110,28.0,289.0
1111,29.0,291.0
1112,29.0,293.0
1113,30.0,301.0
1114,29.0,294.0
1115,27.0,290.0
1116,27.0,288.0
1117,28.0,289.0
1118,28.0,289.0
1119,29.0,289.0
1120,22.0,283.0
1121,36.0,290.0
1122,29.0,289.0
1123,29.0,288.0
1124,28.0,287.0
1125,21.0,280.0
1126,36.0,289.0
1127,31.0,292.0
1128,30.0,293.0
1129,28.0,293.0
1130,29.0,300.0
1131,28.0,292.0
1132,29.0,293.0
1133,29.0,293.0
1134,30.0,295.0
1135,30.0,305.0
1136,29.0,298.0
1137,28.0,295.0
1138,28.0,293.0
1139,28.0,293.0
1140,30.0,294.0
1141,31.0,297.0
1142,29.0,296.0
1143,30.0,297.0
1144,28.0,296.0
1145,28.0,294.0
1146,28.0,292.0
1147,28.0,292.0
1148,30.0,295.0
1149,30.0,297.0
1150,30.0,296.0
1151,28.0,294.0
1152,29.0,293.0
1153,29.0,292.0
1154,29.0,292.0
1155,29.0,293.0
1156,30.0,295.0
1157,30.0,297.0
1158,30.0,296.0
1159,28.0,294.0
1160,28.0,292.0
1161,29.0,292.0
1162,30.0,294.0
1163,30.0,295.0
1164,29.0,296.0
1165,30.0,297.0
1166,28.0,295.0
1167,29.0,295.0
1168,28.0,293.0
1169,29.0,294.0
1170,30.0,296.0
1171,30.0,298.0
1172,30.0,298.0
1173,28.0,295.0
1174,28.0,294.0
1175,28.0,293.0
1176,29.0,293.0
1177,29.0,293.0
1178,30.0,295.0
1179,30.0,296.0
1180,29.0,295.0
1181,28.0,292.0
1182,27.0,290.0
1183,28.0,290.0
1184,29.0,291.0
1185,30.0,292.0
1186,30.0,293.0
1187,29.0,292.0
1188,29.0,291.0
1189,28.0,289.0
1190,28.0,288.0
1191,28.0,289.0
1192,30.0,292.0
1193,30.0,294.0
1194,30.0,295.0
1195,29.0,294.0
1196,27.0,292.0
1197,28.0,292.0
1198,28.0,291.0
1199,29.0,293.0
1200,30.0,294.0
1201,30.0,296.0
1202,29.0,294.0
1203,29.0,293.0
1204,28.0,291.0
1205,27.0,289.0
1206,29.0,291.0
1207,29.0,291.0
1208,29.0,292.0
1209,29.0,292.0
1210,28.0,290.0
1211,27.0,287.0
1212,28.0,286.0
1213,28.0,286.0
1214,28.0,286.0
1215,30.0,290.0
1216,29.0,290.0
1217,29.0,289.0
1218,28.0,289.0
1219,20.0,280.0
1220,34.0,286.0
1221,30.0,289.0
1222,30.0,291.0
1223,30.0,293.0
1224,30.0,295.0
1225,29.0,293.0
1226,27.0,291.0
1227,28.0,291.0
1228,28.0,290.0
1229,30.0,300.0
1230,30.0,296.0
1231,29.0,295.0
1232,28.0,293.0
1233,28.0,291.0
1234,28.0,289.0
1235,21.0,282.0
1236,34.0,288.0
1237,29.0,289.0
1238,30.0,291.0
1239,29.0,290.0
1240,27.0,287.0
1241,27.0,284.0
1242,29.0,285.0
1243,28.0,285.0
1244,29.0,286.0
1245,29.0,294.0
1246,29.0,289.0
1247,29.0,290.0
1248,28.0,288.0
1249,27.0,286.0
1250,27.0,287.0
1251,30.0,290.0
1252,29.0,291.0
1253,29.0,292.0
1254,28.0,291.0
1255,28.0,290.0
1256,28.0,289.0
1257,29.0,288.0
1258,28.0,288.0
1259,29.0,290.0
1260,30.0,293.0
1261,29.0,292.0
1262,27.0,290.0
1263,26.0,287.0
1264,26.0,285.0
1265,27.0,285.0
1266,28.0,286.0
1267,29.0,286.0
1268,28.0,286.0
1269,29.0,286.0
1270,28.0,283.0
1271,26.0,280.0
1272,26.0,279.0
1273,28.0,281.0
1274,28.0,282.0
1275,29.0,284.0
1276,29.0,284.0
1277,28.0,284.0
1278,27.0,282.0
1279,28.0,281.0
1280,28.0,282.0
1281,28.0,283.0
1282,29.0,286.0
1283,30.0,287.0
1284,31.0,290.0
1285,27.0,288.0
1286,27.0,287.0
1287,29.0,287.0
1288,29.0,290.0
1289,28.0,290.0
1290,30.0,291.0
1291,31.0,294.0
1292,28.0,293.0
1293,28.0,291.0
1294,28.0,289.0
1295,29.0,291.0
1296,28.0,291.0
1297,30.0,292.0
1298,30.0,293.0
1299,29.0,294.0
1300,26.0,291.0
1301,27.0,288.0
1302,28.0,288.0
1303,28.0,288.0
1304,27.0,287.0
1305,29.0,287.0
1306,30.0,289.0
1307,29.0,288.0
1308,25.0,284.0
1309,27.0,282.0
1310,28.0,284.0
1311,30.0,287.0
1312,28.0,287.0
1313,28.0,286.0
1314,30.0,289.0
1315,29.0,289.0
1316,26.0,284.0
1317,26.0,282.0
1318,28.0,285.0
1319,30.0,288.0
1320,28.0,287.0
1321,28.0,285.0
1322,28.0,286.0
1323,28.0,286.0
1324,22.0,277.0
1325,32.0,280.0
1326,29.0,284.0
1327,30.0,288.0
1328,30.0,289.0
1329,30.0,289.0
1330,27.0,288.0
1331,27.0,287.0
1332,28.0,286.0
1333,29.0,287.0
1334,29.0,294.0
1335,28.0,290.0
1336,29.0,291.0
1337,28.0,289.0
1338,27.0,286.0
1339,27.0,284.0
1340,27.0,283.0
1341,29.0,285.0
1342,29.0,286.0
1343,29.0,287.0
1344,28.0,287.0
1345,28.0,287.0
1346,27.0,284.0
1347,28.0,284.0
1348,28.0,285.0
1349,29.0,286.0
1350,29.0,289.0
1351,30.0,290.0
1352,29.0,289.0
1353,28.0,288.0
1354,28.0,287.0
1355,28.0,286.0
1356,29.0,289.0
1357,30.0,290.0
1358,29.0,291.0
1359,30.0,292.0
1360,29.0,291.0
1361,27.0,289.0
1362,27.0,287.0
1363,28.0,288.0
1364,29.0,290.0
1365,30.0,292.0
1366,29.0,292.0
1367,28.0,291.0
1368,29.0,291.0
1369,28.0,290.0
1370,28.0,290.0
1371,29.0,291.0
1372,30.0,295.0
1373,30.0,297.0
1374,29.0,297.0
1375,28.0,294.0
1376,28.0,292.0
1377,28.0,293.0
1378,28.0,292.0
1379,29.0,292.0
1380,30.0,294.0
1381,29.0,294.0
1382,28.0,291.0
1383,28.0,289.0
1384,27.0,287.0
1385,28.0,287.0
1386,29.0,289.0
1387,30.0,290.0
1388,29.0,291.0
1389,29.0,291.0
1390,27.0,289.0
1391,28.0,287.0
1392,29.0,288.0
1393,28.0,289.0
1394,20.0,281.0
1395,36.0,290.0
1396,30.0,291.0
1397,28.0,289.0
1398,27.0,287.0
1399,28.0,286.0
1400,28.0,287.0
1401,29.0,288.0
1402,29.0,288.0
1403,29.0,289.0
1404,29.0,298.0
1405,27.0,289.0
1406,27.0,287.0
1407,28.0,286.0
1408,29.0,288.0
1409,30.0,290.0
1410,30.0,292.0
1411,30.0,292.0
1412,28.0,291.0
1413,28.0,291.0
1414,28.0,289.0
1415,29.0,291.0
1416,29.0,292.0
1417,29.0,293.0
1418,30.0,295.0
1419,29.0,294.0
1420,28.0,291.0
1421,27.0,289.0
1422,28.0,289.0
1423,29.0,290.0
1424,29.0,291.0
1425,29.0,291.0
1426,29.0,291.0
1427,29.0,290.0
1428,28.0,288.0
1429,27.0,286.0
1430,29.0,286.0
1431,30.0,289.0
1432,30.0,290.0
1433,29.0,291.0
1434,28.0,289.0
1435,28.0,288.0
1436,28.0,288.0
1437,28.0,287.0
1438,29.0,288.0
1439,30.0,291.0
1440,30.0,293.0
1441,29.0,292.0
1442,28.0,290.0
1443,28.0,288.0
1444,28.0,288.0
1445,29.0,289.0
1446,30.0,291.0
1447,30.0,293.0
1448,29.0,293.0
1449,29.0,292.0
1450,29.0,291.0
1451,27.0,289.0
1452,28.0,289.0
1453,29.0,290.0
1454,30.0,293.0
1455,29.0,293.0
1456,28.0,291.0
1457,27.0,288.0
1458,29.0,288.0
1459,28.0,287.0
1460,28.0,286.0
1461,29.0,288.0
1462,30.0,290.0
1463,29.0,290.0
1464,28.0,288.0
1465,27.0,286.0
1466,27.0,285.0
1467,29.0,287.0
1468,28.0,287.0
1469,28.0,288.0
1470,29.0,289.0
1471,29.0,289.0
1472,27.0,287.0
1473,28.0,285.0
1474,28.0,285.0
1475,29.0,286.0
1476,30.0,289.0
1477,30.0,289.0
1478,29.0,290.0
1479,22.0,283.0
1480,32.0,286.0
1481,28.0,285.0
1482,21.0,279.0
1483,34.0,286.0
1484,29.0,287.0
1485,30.0,289.0
1486,29.0,289.0
1487,27.0,286.0
1488,27.0,285.0
1489,27.0,289.0
1490,29.0,286.0
1491,30.0,288.0
1492,29.0,297.0
1493,29.0,291.0
1494,30.0,291.0
1495,28.0,289.0
1496,27.0,287.0
1497,28.0,288.0
1498,29.0,290.0
1499,30.0,293.0
1500,30.0,294.0
1501,28.0,292.0
1502,28.0,291.0
1503,29.0,291.0
1504,28.0,289.0
1505,28.0,289.0
1506,30.0,292.0
1507,29.0,294.0
1508,30.0,294.0
1509,28.0,292.0
1510,28.0,290.0
1511,28.0,290.0
1512,30.0,291.0
1513,29.0,291.0
1514,29.0,293.0
1515,30.0,295.0
1516,29.0,293.0
1517,28.0,291.0
1518,28.0,289.0
1519,28.0,289.0
1520,19.0,280.0
1521,37.0,289.0
1522,30.0,289.0
1523,29.0,290.0
1524,28.0,288.0
1525,27.0,286.0
1526,28.0,285.0
1527,29.0,286.0
1528,19.0,278.0
1529,36.0,286.0
1530,30.0,297.0
1531,29.0,290.0
1532,28.0,288.0
1533,28.0,287.0
1534,28.0,286.0
1535,30.0,289.0
1536,30.0,291.0
1537,29.0,291.0
1538,29.0,300.0
1539,29.0,294.0
1540,28.0,292.0
1541,28.0,290.0
1542,29.0,291.0
1543,31.0,294.0
1544,31.0,296.0
1545,29.0,296.0
1546,28.0,294.0
1547,29.0,294.0
1548,29.0,295.0
1549,29.0,295.0
1550,21.0,288.0
1551,36.0,297.0
1552,31.0,299.0
1553,30.0,298.0
1554,28.0,295.0
1555,28.0,294.0
1556,29.0,295.0
1557,23.0,289.0
1558,35.0,295.0
1559,30.0,295.0
1560,29.0,303.0
1561,29.0,295.0
1562,27.0,292.0
1563,28.0,290.0
1564,29.0,291.0
1565,30.0,292.0
1566,29.0,292.0
1567,29.0,299.0
1568,28.0,292.0
1569,28.0,290.0
1570,28.0,289.0
1571,28.0,288.0
1572,30.0,291.0
1573,30.0,293.0
1574,30.0,294.0
1575,29.0,293.0
1576,28.0,292.0
1577,28.0,291.0
1578,28.0,291.0
1579,29.0,292.0
1580,30.0,295.0
1581,30.0,297.0
1582,29.0,296.0
1583,28.0,294.0
1584,28.0,293.0
1585,28.0,292.0
1586,29.0,292.0
1587,29.0,293.0
1588,30.0,295.0
1589,30.0,296.0
1590,29.0,294.0
1591,20.0,284.0
1592,34.0,289.0
1593,29.0,290.0
1594,29.0,291.0
1595,30.0,292.0
1596,30.0,293.0
1597,29.0,294.0
1598,28.0,291.0
1599,27.0,289.0
1600,28.0,288.0
1601,30.0,298.0
1602,30.0,294.0
1603,23.0,287.0
1604,35.0,293.0
1605,29.0,292.0
1606,28.0,291.0
1607,27.0,289.0
1608,28.0,289.0
1609,30.0,292.0
1610,30.0,294.0
1611,29.0,293.0
1612,28.0,292.0
1613,29.0,298.0
1614,28.0,290.0
1615,28.0,290.0
1616,29.0,291.0
1617,30.0,293.0
1618,30.0,295.0
1619,29.0,295.0
1620,27.0,292.0
1621,28.0,291.0
1622,28.0,290.0
1623,28.0,290.0
1624,31.0,292.0
1625,30.0,294.0
1626,29.0,294.0
1627,29.0,294.0
1628,28.0,291.0
1629,28.0,290.0
1630,28.0,290.0
1631,30.0,292.0
1632,30.0,294.0
1633,30.0,296.0
1634,29.0,294.0
1635,28.0,292.0
1636,28.0,291.0
1637,28.0,290.0
1638,29.0,292.0
1639,30.0,294.0
1640,30.0,296.0
1641,29.0,295.0
1642,29.0,295.0
1643,28.0,293.0
1644,28.0,292.0
1645,30.0,294.0
1646,30.0,295.0
1647,30.0,297.0
1648,30.0,298.0
1649,28.0,296.0
1650,29.0,295.0
1651,28.0,294.0
1652,28.0,292.0
1653,29.0,294.0
1654,31.0,297.0
1655,29.0,296.0
1656,29.0,295.0
1657,28.0,293.0
1658,28.0,291.0
1659,29.0,292.0
1660,29.0,292.0
1661,29.0,293.0
1662,31.0,295.0
1663,30.0,296.0
1664,28.0,293.0
1665,28.0,291.0
1666,28.0,291.0
1667,29.0,292.0
1668,30.0,294.0
1669,29.0,295.0
1670,29.0,295.0
1671,29.0,295.0
1672,28.0,293.0
1673,27.0,290.0
1674,28.0,290.0
1675,29.0,291.0
1676,30.0,292.0
1677,29.0,293.0
1678,28.0,291.0
1679,27.0,289.0
1680,28.0,288.0
1681,27.0,286.0
1682,28.0,286.0
1683,30.0,288.0
1684,30.0,290.0
1685,29.0,290.0
1686,28.0,289.0
1687,27.0,287.0
1688,27.0,285.0
1689,27.0,285.0
1690,28.0,285.0
1691,29.0,287.0
1692,29.0,288.0
1693,28.0,286.0
1694,27.0,284.0
1695,28.0,283.0
1696,27.0,282.0
1697,28.0,284.0
1698,29.0,286.0
1699,31.0,290.0
1700,30.0,292.0
1701,28.0,291.0
1702,28.0,290.0
1703,29.0,291.0
1704,29.0,293.0
1705,29.0,294.0
1706,30.0,296.0
1707,31.0,299.0
1708,29.0,299.0
1709,28.0,296.0
1710,28.0,294.0
1711,29.0,294.0
1712,30.0,296.0
1713,30.0,297.0
1714,30.0,297.0
1715,29.0,297.0
1716,29.0,296.0
1717,28.0,293.0
1718,28.0,291.0
1719,29.0,293.0
1720,30.0,294.0
1721,30.0,296.0
1722,29.0,295.0
1723,29.0,294.0
1724,28.0,292.0
1725,29.0,292.0
1726,28.0,291.0
1727,29.0,292.0
1728,29.0,293.0
1729,29.0,294.0
1730,28.0,292.0
1731,27.0,289.0
1732,27.0,287.0
1733,27.0,286.0
1734,29.0,287.0
1735,21.0,279.0
1736,36.0,287.0
1737,30.0,288.0
1738,28.0,287.0
1739,28.0,286.0
1740,28.0,286.0
1741,28.0,286.0
1742,29.0,288.0
1743,30.0,291.0
1744,30.0,291.0
1745,28.0,298.0
1746,28.0,291.0
1747,28.0,289.0
1748,28.0,288.0
1749,29.0,290.0
1750,29.0,291.0
1751,30.0,293.0
1752,29.0,293.0
1753,29.0,292.0
1754,27.0,289.0
1755,28.0,290.0
1756,28.0,290.0
1757,30.0,292.0
1758,30.0,294.0
1759,29.0,294.0
1760,28.0,293.0
1761,29.0,292.0
1762,28.0,290.0
1763,28.0,289.0
1764,29.0,291.0
1765,30.0,292.0
1766,30.0,294.0
1767,29.0,293.0
1768,27.0,290.0
1769,28.0,288.0
1770,29.0,288.0
1771,28.0,288.0
1772,29.0,289.0
1773,30.0,291.0
1774,30.0,293.0
1775,29.0,292.0
1776,28.0,291.0
1777,27.0,289.0
1778,30.0,292.0
1779,30.0,294.0
1780,30.0,295.0
1781,29.0,296.0
1782,30.0,296.0
1783,28.0,294.0
1784,28.0,293.0
1785,27.0,291.0
1786,28.0,291.0
1787,31.0,295.0
1788,30.0,295.0
1789,29.0,294.0
1790,28.0,292.0
1791,28.0,291.0
1792,28.0,290.0
1793,29.0,291.0
1794,29.0,292.0
1795,30.0,294.0
1796,31.0,296.0
1797,29.0,294.0
1798,27.0,291.0
1799,28.0,290.0
1800,28.0,291.0
1801,30.0,293.0
1802,30.0,294.0
1803,29.0,294.0
1804,30.0,295.0
1805,29.0,294.0
1806,28.0,292.0
1807,27.0,291.0
1808,29.0,293.0
1809,29.0,295.0
1810,30.0,297.0
1811,29.0,296.0
1812,27.0,293.0
1813,28.0,292.0
1814,28.0,291.0
1815,26.0,288.0
1816,31.0,291.0
1817,30.0,293.0
1818,21.0,285.0
1819,36.0,291.0
1820,28.0,289.0
1821,28.0,288.0
1822,29.0,290.0
1823,30.0,291.0
1824,30.0,293.0
1825,30.0,296.0
1826,30.0,295.0
1827,29.0,294.0
1828,29.0,301.0
1829,28.0,293.0
1830,29.0,295.0
1831,31.0,297.0
1832,30.0,298.0
1833,29.0,298.0
1834,28.0,296.0
1835,28.0,294.0
1836,29.0,293.0
1837,29.0,293.0
1838,29.0,294.0
1839,30.0,296.0
1840,30.0,297.0
1841,28.0,294.0
1842,28.0,292.0
1843,28.0,291.0
1844,28.0,290.0
1845,30.0,292.0
1846,30.0,293.0
1847,30.0,295.0
1848,29.0,295.0
1849,29.0,294.0
1850,28.0,292.0
1851,29.0,292.0
1852,29.0,293.0
1853,30.0,295.0
1854,31.0,297.0
1855,29.0,297.0
1856,29.0,296.0
1857,28.0,294.0
1858,28.0,293.0
1859,29.0,293.0
1860,29.0,294.0
1861,30.0,295.0
1862,29.0,295.0
1863,29.0,294.0
1864,28.0,292.0
1865,28.0,290.0
1866,28.0,290.0
1867,29.0,291.0
1868,30.0,294.0
1869,29.0,294.0
1870,29.0,294.0
1871,28.0,292.0
1872,28.0,291.0
1873,28.0,290.0
1874,29.0,291.0
1875,30.0,293.0
1876,30.0,295.0
1877,30.0,296.0
1878,28.0,293.0
1879,28.0,292.0
1880,28.0,291.0
1881,29.0,293.0
1882,29.0,294.0
1883,29.0,296.0
1884,30.0,296.0
1885,29.0,295.0
1886,28.0,293.0
1887,28.0,291.0
1888,28.0,290.0
1889,30.0,292.0
1890,31.0,294.0
1891,30.0,295.0
1892,29.0,295.0
1893,29.0,294.0
1894,29.0,293.0
1895,28.0,292.0
1896,29.0,293.0
1897,30.0,295.0
1898,30.0,297.0
1899,30.0,297.0
1900,28.0,295.0
1901,27.0,292.0
1902,28.0,291.0
1903,28.0,290.0
1904,28.0,289.0
1905,29.0,291.0
1906,19.0,280.0
1907,40.0,291.0
1908,28.0,289.0
1909,27.0,286.0
1910,27.0,285.0
1911,30.0,287.0
1912,29.0,289.0
1913,29.0,290.0
1914,29.0,291.0
1915,28.0,290.0
1916,28.0,299.0
1917,28.0,287.0
1918,27.0,286.0
1919,29.0,288.0
1920,31.0,292.0
1921,30.0,291.0
1922,27.0,290.0
1923,28.0,288.0
1924,28.0,287.0
1925,28.0,288.0
1926,29.0,289.0
1927,29.0,290.0
1928,30.0,293.0
1929,30.0,294.0
1930,28.0,292.0
1931,27.0,290.0
1932,28.0,290.0
1933,28.0,290.0
1934,30.0,293.0
1935,29.0,293.0
1936,29.0,293.0
1937,30.0,294.0
1938,28.0,292.0
1939,28.0,289.0
1940,27.0,288.0
1941,29.0,290.0
1942,30.0,292.0
1943,30.0,294.0
1944,29.0,293.0
1945,27.0,291.0
1946,28.0,291.0
1947,28.0,289.0
1948,28.0,289.0
1949,29.0,290.0
1950,30.0,293.0
1951,30.0,294.0
1952,29.0,293.0
1953,28.0,290.0
1954,27.0,288.0
1955,29.0,290.0
1956,29.0,290.0
1957,29.0,291.0
1958,28.0,291.0
1959,28.0,291.0
1960,28.0,289.0
1961,22.0,281.0
1962,32.0,284.0
1963,28.0,284.0
1964,30.0,288.0
1965,29.0,288.0
1966,29.0,288.0
1967,28.0,286.0
1968,28.0,286.0
1969,28.0,285.0
1970,28.0,286.0
1971,28.0,292.0
1972,30.0,290.0
1973,21.0,283.0
1974,35.0,288.0
1975,28.0,286.0
1976,28.0,286.0
1977,19.0,277.0
1978,34.0,283.0
1979,30.0,286.0
1980,29.0,287.0
1981,29.0,288.0
1982,29.0,287.0
1983,28.0,294.0
1984,27.0,286.0
1985,28.0,286.0
1986,29.0,287.0
1987,30.0,298.0
1988,30.0,294.0
1989,28.0,293.0
1990,28.0,292.0
1991,29.0,291.0
1992,29.0,291.0
1993,29.0,291.0
1994,30.0,294.0
1995,30.0,296.0
1996,31.0,298.0
1997,28.0,296.0
1998,28.0,294.0
1999,28.0,293.0
2000,30.0,294.0
2001,23.0,289.0
2002,35.0,295.0
2003,30.0,297.0
2004,29.0,295.0
2005,29.0,294.0
2006,28.0,291.0
2007,28.0,292.0
2008,30.0,294.0
2009,31.0,296.0
2010,30.0,296.0
2011,29.0,302.0
2012,28.0,295.0
2013,28.0,293.0
2014,28.0,292.0
2015,29.0,292.0
2016,30.0,294.0
2017,30.0,295.0
2018,24.0,289.0
2019,34.0,292.0
2020,28.0,291.0
2021,28.0,290.0
2022,29.0,290.0
2023,29.0,292.0
2024,29.0,293.0
2025,29.0,294.0
2026,29.0,293.0
2027,28.0,291.0
2028,27.0,294.0
2029,27.0,287.0
2030,25.0,284.0
2031,32.0,288.0
2032,30.0,289.0
2033,28.0,287.0
2034,27.0,285.0
2035,26.0,282.0
2036,27.0,280.0
2037,26.0,278.0
2038,27.0,278.0
2039,27.0,278.0
2040,27.0,281.0
2041,28.0,277.0
2042,26.0,273.0
2043,25.0,270.0
2044,24.0,267.0
2045,25.0,266.0
2046,26.0,266.0
2047,27.0,266.0
2048,27.0,266.0
2049,27.0,265.0
2050,26.0,264.0
2051,26.0,263.0
2052,26.0,263.0
2053,27.0,265.0
2054,27.0,268.0
2055,29.0,271.0
2056,29.0,274.0
2057,27.0,274.0
2058,27.0,274.0
2059,27.0,275.0
2060,28.0,276.0
2061,27.0,277.0
2062,28.0,280.0
2063,29.0,282.0
2064,28.0,283.0
2065,28.0,282.0
2066,28.0,281.0
2067,21.0,275.0
2068,31.0,279.0
2069,29.0,282.0
2070,30.0,284.0
2071,29.0,286.0
2072,28.0,285.0
2073,29.0,285.0
2074,27.0,283.0
2075,27.0,283.0
2076,28.0,283.0
2077,30.0,292.0
2078,28.0,289.0
2079,30.0,290.0
2080,29.0,288.0
2081,25.0,285.0
2082,26.0,283.0
2083,26.0,281.0
2084,25.0,279.0
2085,26.0,278.0
2086,27.0,276.0
2087,25.0,272.0
2088,25.0,269.0
2089,25.0,263.0
2090,24.0,258.0
2091,23.0,256.0
2092,24.0,255.0
2093,26.0,254.0
2094,26.0,255.0
2095,25.0,255.0
2096,27.0,255.0
2097,26.0,256.0
2098,26.0,256.0
2099,26.0,257.0
2100,26.0,259.0
2101,26.0,262.0
2102,28.0,265.0
2103,28.0,267.0
2104,28.0,269.0
2105,27.0,271.0
2106,26.0,271.0
2107,26.0,271.0
2108,28.0,274.0
2109,28.0,276.0
2110,28.0,278.0
2111,30.0,281.0
2112,31.0,284.0
2113,27.0,284.0
2114,27.0,282.0
2115,28.0,283.0
2116,29.0,286.0
2117,29.0,289.0
2118,29.0,290.0
2119,29.0,291.0
2120,29.0,292.0
2121,27.0,289.0
2122,26.0,285.0
2123,26.0,283.0
2124,27.0,284.0
2125,28.0,284.0
2126,28.0,283.0
2127,29.0,283.0
2128,27.0,280.0
2129,27.0,278.0
2130,28.0,277.0
2131,27.0,278.0
2132,28.0,279.0
2133,29.0,282.0
2134,29.0,284.0
2135,29.0,285.0
2136,27.0,283.0
2137,27.0,282.0
2138,28.0,283.0
2139,28.0,284.0
2140,29.0,285.0
2141,29.0,287.0
2142,29.0,287.0
2143,27.0,286.0
2144,28.0,284.0
2145,27.0,283.0
2146,27.0,282.0
2147,28.0,283.0
2148,30.0,285.0
2149,29.0,286.0
2150,28.0,285.0
2151,27.0,283.0
2152,27.0,282.0
2153,28.0,282.0
2154,28.0,282.0
2155,28.0,283.0
2156,29.0,286.0
2157,29.0,287.0
2158,28.0,285.0
2159,27.0,283.0
2160,27.0,283.0
2161,28.0,283.0
2162,29.0,285.0
2163,29.0,286.0
2164,29.0,288.0
2165,29.0,288.0
2166,28.0,287.0
2167,27.0,285.0
2168,27.0,285.0
2169,28.0,285.0
2170,28.0,286.0
2171,30.0,288.0
2172,29.0,288.0
2173,28.0,287.0
2174,26.0,284.0
2175,27.0,282.0
2176,27.0,281.0
2177,27.0,281.0
2178,27.0,281.0
2179,29.0,282.0
2180,28.0,282.0
2181,28.0,280.0
2182,26.0,276.0
2183,27.0,275.0
2184,27.0,276.0
2185,28.0,277.0
2186,28.0,278.0
2187,28.0,279.0
2188,28.0,280.0
2189,28.0,279.0
2190,27.0,279.0
2191,27.0,277.0
2192,27.0,279.0
2193,28.0,281.0
2194,29.0,283.0
2195,29.0,284.0
2196,19.0,274.0
2197,32.0,277.0
2198,26.0,276.0
2199,26.0,274.0
2200,26.0,273.0
2201,27.0,273.0
2202,27.0,273.0
2203,27.0,271.0
2204,26.0,268.0
2205,25.0,265.0
2206,26.0,272.0
2207,25.0,266.0
2208,25.0,265.0
2209,27.0,266.0
2210,27.0,266.0
2211,27.0,266.0
2212,26.0,266.0
2213,27.0,265.0
2214,26.0,265.0
2215,25.0,264.0
2216,26.0,264.0
2217,28.0,267.0
2218,28.0,269.0
2219,28.0,270.0
2220,29.0,272.0
2221,28.0,273.0
2222,27.0,274.0
2223,28.0,275.0
2224,29.0,278.0
2225,29.0,282.0
2226,29.0,285.0
2227,30.0,287.0
2228,29.0,289.0
2229,28.0,288.0
2230,27.0,287.0
2231,28.0,288.0
2232,29.0,290.0
2233,30.0,292.0
2234,29.0,293.0
2235,29.0,293.0
2236,29.0,293.0
2237,28.0,291.0
2238,28.0,290.0
2239,27.0,289.0
2240,30.0,291.0
2241,29.0,293.0
2242,28.0,292.0
2243,27.0,289.0
2244,27.0,287.0
2245,27.0,284.0
2246,27.0,283.0
2247,27.0,282.0
2248,28.0,282.0
2249,28.0,282.0
2250,28.0,280.0
2251,26.0,277.0
2252,26.0,274.0
2253,25.0,272.0
2254,25.0,270.0
2255,26.0,269.0
2256,28.0,269.0
2257,26.0,269.0
2258,26.0,267.0
2259,26.0,265.0
2260,25.0,263.0
2261,25.0,262.0
2262,24.0,260.0
2263,25.0,260.0
2264,26.0,261.0
2265,26.0,262.0
2266,27.0,261.0
2267,25.0,260.0
2268,24.0,258.0
2269,25.0,257.0
2270,25.0,256.0
